dose,$Gly$,$Gly_{CAA}$,$Gly_{RDM}$
0.0,0.9999999999994873,0.999999999999855,1.0000000000001852
0.02,0.970290029161099,0.9776592816174621,0.987903857264359
0.04,0.9415016334212603,0.9560412632375475,0.9760682003197592
0.06,0.9136539267667138,0.9351281595439584,0.9644858053389039
0.08,0.8867585083640563,0.9149012386681892,0.9531496577323328
0.1,0.860819805017092,0.8953410515348176,0.9420529479827463
0.12,0.8358355785608579,0.8764276399914801,0.9311890669484398
0.14,0.8117975565900134,0.8581407230057008,0.920551600542118
0.16,0.7886921439147598,0.8404598608696627,0.9101343237008465
0.18,0.7665011745813743,0.8233645978853216,0.8999311935957962
0.2,0.7452026692380072,0.8068345844221668,0.8899363420797272
0.22,0.7247715690565097,0.7908496795642787,0.8801440674274025
0.24,0.7051804244177933,0.7753900358055653,0.8705488254804151
0.26,0.6864000233975557,0.7604361674222349,0.8611452203564631
0.28,0.668399951239079,0.7459690042566558,0.851927994918817
0.3,0.6511490771704114,0.7319699326923073,0.8428920212222155
0.32,0.6346159689940436,0.718420825590338,0.8340322911567838
0.34,0.6187692388603816,0.7053040629004549,0.8253439075016705
0.36,0.6035778256332803,0.692602544558437,0.8168220755797008
0.38,0.5890112204166246,0.6802996971513591,0.8084620956739317
0.4,0.5750396423084617,0.6683794756718159,0.8002593563318927
0.42,0.561634171444153,0.6568263615143562,0.7922093286445204
0.44,0.5487668460448188,0.6456253576894074,0.7843075615495904
0.46,0.5364107296190327,0.6347619820582538,0.7765496781729072
0.48,0.5245399537838317,0.6242222592297336,0.7689313731844017
0.5,0.5131297414476992,0.6139927116124368,0.7614484111310027
0.52,0.5021564143905516,0.6040603499870029,0.7540966256651305
0.54,0.4915973886132328,0.5944126638486121,0.7468719195890834
0.56,0.4814311602344349,0.5850376116979613,0.7397702656146999
0.58,0.4716372842059439,0.5759236113574785,0.7327877077318107
0.6,0.4621963476569977,0.5670595303705782,0.7259203630739974
0.62,0.45308993933304575,0.5584346764804532,0.7191644241791307
0.64,0.4443006162768432,0.5500387881699565,0.7125161615211109
0.66,0.4358118686626239,0.5418620252318502,0.7059719262509074
0.68,0.42760808349195234,0.5338949593140458,0.699528153004537
0.7000000000000001,0.41967450770802694,0.5261285644245454,0.6931813627378887
0.72,0.41199721116243904,0.5185542073283703,0.6869281654944833
0.74,0.4045630497620655,0.5111636378280426,0.68076526302373
0.76,0.39735962905724814,0.50394897889819,0.6746894512632828
0.78,0.39037526847448,0.49690271663816904,0.668697622550479
0.8,0.3835989663242933,0.4900176901030976,0.6627867675810106
0.8200000000000001,0.37702036574099207,0.4832870809272255,0.6569539770909478
0.84,0.3706297215813635,0.4767044028199398,0.6511964432073111
0.86,0.364417868392394,0.47026349091446124,0.6455114605039192
0.88,0.35837618946338223,0.4639584910090923,0.6398964266783337
0.9,0.35249658699987674,0.45778384872459554,0.6343488429627032
0.92,0.3467714534502238,0.4517342985959356,0.6288663141528797
0.9400000000000001,0.34119364395286705,0.44580485312226087,0.6234465483243318
0.96,0.3357564499403422,0.4399907918593077,0.6180873562854369
0.98,0.3304535738811828,0.4342876505081538,0.6127866506689813
1.0,0.3252791051333336,0.4286912100819011,0.6075424447747287
1.02,0.3202274969020223,0.4231974861715852,0.6023528511678637
1.04,0.3152935442965867,0.41780271837174127,0.5972160800020088
1.06,0.31047236341061957,0.4125033597684224,0.592130437136618
1.08,0.30575937147795385,0.4072960667192582,0.5870943219898169
1.1,0.30115026801408024,0.4021776887721435,0.5821062253506712
1.12,0.2966410168747601,0.3971452587775876,0.577164726894231
1.1400000000000001,0.2922278293750842,0.39219598333122757,0.5722684925067482
1.16,0.2879071482240841,0.38732723344846415,0.5674162717344482
1.18,0.28367563234297644,0.3825365353819201,0.5626068948508054
1.2,0.2795301426025154,0.3778215619817829,0.5578392699610272
1.22,0.27546772828722477,0.3731801240998662,0.5531123800754408
1.24,0.2714856143926121,0.3686101624567512,0.5484252800329875
1.26,0.2675811896294231,0.36410973973133376,0.543777093405434
1.28,0.2637519952253761,0.35967703298919546,0.5391670095255742
1.3,0.2599957142778287,0.35531032645903576,0.5345942802387315
1.32,0.2563101619270388,0.3510080045820707,0.5300582169360957
1.34,0.25269327599196545,0.3467685453753738,0.5255581873895204
1.36,0.24914310826876712,0.3425905141489089,0.5210936127531398
1.3800000000000001,0.2456578164484603,0.33847255744607335,0.5166639645316804
1.4000000000000001,0.2422356565026332,0.33441339746595805,0.5122687616107321
1.42,0.2388749755111139,0.33041182651079687,0.5079075673336578
1.44,0.2355742051405688,0.3264667019865223,0.5035799866942723
1.46,0.23233185544250282,0.3225769415851371,0.4992856635031436
1.48,0.22914650912255113,0.3187415186758551,0.49502427776149716
1.5,0.22601681621483188,0.3149594580781545,0.49079554296157474
1.52,0.22294148913716186,0.3112298320462937,0.48659920352441
1.54,0.2199192981079987,0.3075517565024763,0.482435032420979
1.56,0.21694906689833848,0.3039243875391222,0.4783028288418629
1.58,0.21402966887450897,0.3003469181160145,0.47420241573945904
1.6,0.21116002342381554,0.29681857501306835,0.4701336378116775
1.62,0.20833909254911234,0.29333861593248134,0.4660963594354924
1.6400000000000001,0.2055658777044076,0.28990632699231633,0.46209046257443437
1.6600000000000001,0.2028394171510125,0.2865210201467133,0.45811584486894547
1.68,0.2001587830523555,0.2831820309290672,0.4541724179493482
1.7,0.19752307933326532,0.2798887164296244,0.4502601057302481
1.72,0.1949314391977084,0.27664045342695315,0.44637884271181344
1.74,0.19238302332751891,0.2734366363739976,0.44252857249699745
1.76,0.189877017871668,0.2702766761180267,0.4387092463127376
1.78,0.18741263269267774,0.26715999812905866,0.43492082192556475
1.8,0.18498909999226146,0.26408604130604596,0.4311632619640776
1.82,0.1826056727020562,0.26105425674069954,0.42743653324878955
1.84,0.18026162325005002,0.2580641064700364,0.42374060523143453
1.86,0.17795624237786753,0.2551150627339044,0.42007544931570484
1.8800000000000001,0.17568883793268847,0.2522066067370407,0.4164410378129977
1.9000000000000001,0.17345873407708648,0.24933822814964396,0.4128373430892314
1.92,0.17126527023729682,0.24650942401945095,0.4092643368206188
1.94,0.16910780034010692,0.24371969847922903,0.4057219893379097
1.96,0.16698569204088337,0.24096856204279193,0.4022102687918794
1.98,0.16489832607879015,0.23825553089741763,0.39872914077412036
2.0,0.16284509555349383,0.23558012672763662,0.39527856756142704
