dose,r30,r30_r50,r30_r50C,r30_r50D,r30_r50CD,r30A,r30A_r50,r30A_r50C,r30A_r50D,r30A_r50CD,r30B,r30B_r50,r30B_r50C,r30B_r50D,r30B_r50CD,r30AB,r30AB_r50,r30AB_r50C,r30AB_r50D,r30AB_r50CD,r_tot,growth
0.0,32.8233344236358,27.176665573841177,0.0,0.0,0.0,0.0,0.0,0.0,0.0,0.0,0.0,0.0,0.0,0.0,0.0,0.0,0.0,0.0,0.0,0.0,59.999999997476976,0.8329815755411121
0.01875,31.939725537004527,26.504988732460543,0.0,0.0,0.0,0.7247036302692652,0.8305821007377843,0.0,0.0,0.0,0.0,0.0,0.0,0.0,0.0,0.0,0.0,0.0,0.0,0.0,60.00000000047212,0.8123942657571027
0.0375,31.066635795242235,25.843672982962417,0.0,0.0,0.0,1.4390279926178757,1.6506632270515849,0.0,0.0,0.0,0.0,0.0,0.0,0.0,0.0,0.0,0.0,0.0,0.0,0.0,59.99999999787411,0.7921245297990466
0.056249999999999994,30.205706160013985,25.19375816332287,0.0,0.0,0.0,2.1416348494334225,2.4589008252782607,0.0,0.0,0.0,0.0,0.0,0.0,0.0,0.0,0.0,0.0,0.0,0.0,0.0,59.999999998048544,0.7722042393965061
0.075,29.358525678070176,24.556229171464608,0.0,0.0,0.0,2.8312406930646783,3.254004455980559,0.0,0.0,0.0,0.0,0.0,0.0,0.0,0.0,0.0,0.0,0.0,0.0,0.0,59.99999999858002,0.7526635822630987
0.09375,28.526604369007437,23.9319993029486,0.0,0.0,0.0,3.5066389735023322,4.034757353622393,0.0,0.0,0.0,0.0,0.0,0.0,0.0,0.0,0.0,0.0,0.0,0.0,0.0,59.99999999908077,0.7335305514691213
0.11249999999999999,27.71134779563298,23.321895257095623,0.0,0.0,0.0,4.166720596352427,4.800036349972316,0.0,0.0,0.0,0.0,0.0,0.0,0.0,0.0,0.0,0.0,0.0,0.0,0.0,59.99999999905335,0.7148304858562726
0.13125,26.91403449080625,22.72664450454226,0.0,0.0,0.0,4.81049174657315,5.5488292574805405,0.0,0.0,0.0,0.0,0.0,0.0,0.0,0.0,0.0,0.0,0.0,0.0,0.0,59.9999999994022,0.696585682853833
0.15,26.13579722813429,22.14686555465337,0.0,0.0,0.0,5.437088256866195,6.28024896344175,0.0,0.0,0.0,0.0,0.0,0.0,0.0,0.0,0.0,0.0,0.0,0.0,0.0,60.00000000309561,0.6788151001713968
0.16874999999999998,25.377608860292035,21.58306146688175,0.0,0.0,0.0,6.045785968674366,6.993543702350629,0.0,0.0,0.0,0.0,0.0,0.0,0.0,0.0,0.0,0.0,0.0,0.0,0.0,59.99999999819878,0.6615341568279568
0.1875,24.640273186978572,21.035616775862586,0.0,0.0,0.0,6.636006803848947,7.688103232444029,0.0,0.0,0.0,0.0,0.0,0.0,0.0,0.0,0.0,0.0,0.0,0.0,0.0,59.999999999134126,0.6447546391244029
0.20625,23.9244208657576,20.504797694263637,0.0,0.0,0.0,7.207320539386134,8.363460897250974,0.0,0.0,0.0,0.0,0.0,0.0,0.0,0.0,0.0,0.0,0.0,0.0,0.0,59.999999996658346,0.6284847065951094
0.22499999999999998,23.230510244528126,19.99075540516815,0.0,0.0,0.0,7.7594425381405925,9.019291809122304,0.0,0.0,0.0,0.0,0.0,0.0,0.0,0.0,0.0,0.0,0.0,0.0,0.0,59.999999996959176,0.6127289931261506
0.24375,22.558832556276915,19.49353196880698,0.0,0.0,0.0,8.292227893694628,9.655407578766104,0.0,0.0,0.0,0.0,0.0,0.0,0.0,0.0,0.0,0.0,0.0,0.0,0.0,59.99999999754463,0.5974887878767643
0.2625,21.909520856404143,19.01306837232929,0.0,0.0,0.0,8.805662601484805,10.271748169351747,0.0,0.0,0.0,0.0,0.0,0.0,0.0,0.0,0.0,0.0,0.0,0.0,0.0,59.99999999956998,0.5827622820718704
0.28125,21.282561883598095,18.549214138392706,0.0,0.0,0.0,9.299852447380708,10.868371525619335,0.0,0.0,0.0,0.0,0.0,0.0,0.0,0.0,0.0,0.0,0.0,0.0,0.0,59.999999994990844,0.5685448634514124
0.3,20.677810052310274,18.101737961304657,0.0,0.0,0.0,9.775010329598922,11.445441658995124,0.0,0.0,0.0,0.0,0.0,0.0,0.0,0.0,0.0,0.0,0.0,0.0,0.0,60.00000000220897,0.5548294424359957
0.31875,20.09500270193845,17.670338793916848,0.0,0.0,0.0,10.231442684640708,12.003215818828933,0.0,0.0,0.0,0.0,0.0,0.0,0.0,0.0,0.0,0.0,0.0,0.0,0.0,59.99999999932494,0.5416067916472014
0.33749999999999997,19.533775992186854,17.25465702445139,0.0,0.0,0.0,10.669535637113245,12.542031352242635,0.0,0.0,0.0,0.0,0.0,0.0,0.0,0.0,0.0,0.0,0.0,0.0,0.0,60.000000005994124,0.5288658888473441
0.35625,18.993680676962168,16.85428525708803,0.0,0.0,0.0,11.089741362410038,13.062292705516805,0.0,0.0,0.0,0.0,0.0,0.0,0.0,0.0,0.0,0.0,0.0,0.0,0.0,60.000000001977035,0.5165942470176083
0.375,18.47419740454251,16.46877852851134,0.0,0.0,0.0,11.492565082691069,13.56445898779929,0.0,0.0,0.0,0.0,0.0,0.0,0.0,0.0,0.0,0.0,0.0,0.0,0.0,60.00000000354421,0.5047782278256838
0.39375,17.974751037473805,16.097663656688947,0.0,0.0,0.0,11.878552965576336,14.049032343244056,0.0,0.0,0.0,0.0,0.0,0.0,0.0,0.0,0.0,0.0,0.0,0.0,0.0,60.00000000298315,0.49340332791856684
0.4125,17.494723838219087,15.740447680475524,0.0,0.0,0.0,12.248281134075581,14.516547349032415,0.0,0.0,0.0,0.0,0.0,0.0,0.0,0.0,0.0,0.0,0.0,0.0,0.0,60.00000000180261,0.48245443773917684
0.43124999999999997,17.033467306522017,15.396625283692538,0.0,0.0,0.0,12.602345880811754,14.967561526485698,0.0,0.0,0.0,0.0,0.0,0.0,0.0,0.0,0.0,0.0,0.0,0.0,0.0,59.999999997512006,0.47191606902557803
0.44999999999999996,16.590312635424347,15.065685224463168,0.0,0.0,0.0,12.941355127550494,15.402647015803403,0.0,0.0,0.0,0.0,0.0,0.0,0.0,0.0,0.0,0.0,0.0,0.0,0.0,60.00000000324141,0.46177255194732
0.46875,16.164579747222106,14.747115770693691,0.0,0.0,0.0,13.265921097821796,15.822383383004864,0.0,0.0,0.0,0.0,0.0,0.0,0.0,0.0,0.0,0.0,0.0,0.0,0.0,59.99999999874245,0.4520082015251523
0.4875,15.75558503223149,14.440409259687145,0.0,0.0,0.0,13.57665416438676,16.227351541925906,0.0,0.0,0.0,0.0,0.0,0.0,0.0,0.0,0.0,0.0,0.0,0.0,0.0,59.9999999982313,0.4426074576361003
0.50625,15.362647786195977,14.145065786617991,0.0,0.0,0.0,13.874157757438528,16.618128670988018,0.0,0.0,0.0,0.0,0.0,0.0,0.0,0.0,0.0,0.0,0.0,0.0,0.0,60.00000000124051,0.43355499788618257
0.525,14.985095521347322,13.860596163055952,0.0,0.0,0.0,14.159024252305892,16.995284064552994,0.0,0.0,0.0,0.0,0.0,0.0,0.0,0.0,0.0,0.0,0.0,0.0,0.0,60.000000001262165,0.42483582832546024
0.54375,14.622268248456958,13.586524218191741,0.0,0.0,0.0,14.431831722642789,17.359375810750592,0.0,0.0,0.0,0.0,0.0,0.0,0.0,0.0,0.0,0.0,0.0,0.0,0.0,60.00000000004208,0.41643535403105986
0.5625,14.27352184186742,13.322388522831007,0.0,0.0,0.0,14.69314144549607,17.710948188253965,0.0,0.0,0.0,0.0,0.0,0.0,0.0,0.0,0.0,0.0,0.0,0.0,0.0,59.99999999844846,0.40833943191638217
0.5812499999999999,13.938230619302876,13.0677436299581,0.0,0.0,0.0,14.94349605791592,18.050529691807405,0.0,0.0,0.0,0.0,0.0,0.0,0.0,0.0,0.0,0.0,0.0,0.0,0.0,59.9999999989843,0.400534408763414
0.6,13.615789243040753,12.822160903746761,0.0,0.0,0.0,15.18341826423785,18.378631590865744,0.0,0.0,0.0,0.0,0.0,0.0,0.0,0.0,0.0,0.0,0.0,0.0,0.0,60.00000000189111,0.39300714661985026
0.61875,13.305614048680246,12.585229008267094,0.0,0.0,0.0,15.413410005224359,18.695746938632855,0.0,0.0,0.0,0.0,0.0,0.0,0.0,0.0,0.0,0.0,0.0,0.0,0.0,60.00000000080455,0.3857450377657209
0.6375,13.00714390186433,12.356554122824864,0.0,0.0,0.0,15.633952012823466,19.00234996199667,0.0,0.0,0.0,0.0,0.0,0.0,0.0,0.0,0.0,0.0,0.0,0.0,0.0,59.99999999950933,0.37873601136565826
0.65625,12.719840650927226,12.135759924634131,0.0,0.0,0.0,15.845503671331695,19.298895752647553,0.0,0.0,0.0,0.0,0.0,0.0,0.0,0.0,0.0,0.0,0.0,0.0,0.0,59.999999999540606,0.37196853289851556
0.6749999999999999,12.44318926170871,11.922487396061031,0.0,0.0,0.0,16.04850313064795,19.585820211769136,0.0,0.0,0.0,0.0,0.0,0.0,0.0,0.0,0.0,0.0,0.0,0.0,0.0,60.00000000018683,0.3654315982499312
0.69375,12.176697693910247,11.716394492632565,0.0,0.0,0.0,16.243367617250332,19.863540195458274,0.0,0.0,0.0,0.0,0.0,0.0,0.0,0.0,0.0,0.0,0.0,0.0,0.0,59.999999999251415,0.3591147235393429
0.7125,11.919896574647773,11.51715570634165,0.0,0.0,0.0,16.43049389958344,20.13245382008607,0.0,0.0,0.0,0.0,0.0,0.0,0.0,0.0,0.0,0.0,0.0,0.0,0.0,60.00000000065893,0.35300793175658424
0.73125,11.672338707385562,11.324461545338965,0.0,0.0,0.0,16.61025886490466,20.392940883260312,0.0,0.0,0.0,0.0,0.0,0.0,0.0,0.0,0.0,0.0,0.0,0.0,0.0,60.0000000008895,0.3471017367754407
0.75,11.43359846715518,11.138017963535804,0.0,0.0,0.0,16.78302018531542,20.64536338357046,0.0,0.0,0.0,0.0,0.0,0.0,0.0,0.0,0.0,0.0,0.0,0.0,0.0,59.99999999957686,0.3413871259009613
0.7687499999999999,11.203271104507701,10.95754575063283,0.0,0.0,0.0,16.949117040817473,20.890066104316492,0.0,0.0,0.0,0.0,0.0,0.0,0.0,0.0,0.0,0.0,0.0,0.0,0.0,60.0000000002745,0.3358555411747548
0.7875,10.980971984852232,10.78277989784741,0.0,0.0,0.0,17.108870878074185,21.127377240073454,0.0,0.0,0.0,0.0,0.0,0.0,0.0,0.0,0.0,0.0,0.0,0.0,0.0,60.00000000084728,0.3304988599082102
0.80625,10.766335791271864,10.613468957148093,0.0,0.0,0.0,17.26258619342192,21.357609057543623,0.0,0.0,0.0,0.0,0.0,0.0,0.0,0.0,0.0,0.0,0.0,0.0,0.0,59.99999999938551,0.32530937505905677
0.825,10.559015703964127,10.449374399859236,0.0,0.0,0.0,17.410551323519435,21.581058572503796,0.0,0.0,0.0,0.0,0.0,0.0,0.0,0.0,0.0,0.0,0.0,0.0,0.0,59.999999999846594,0.3202797755864083
0.84375,10.35868256648347,10.29026997868595,0.0,0.0,0.0,17.553039229173674,21.79800822629704,0.0,0.0,0.0,0.0,0.0,0.0,0.0,0.0,0.0,0.0,0.0,0.0,0.0,60.00000000064014,0.3154031268668254
0.8624999999999999,10.165024058192358,10.135941106239914,0.0,0.0,0.0,17.690308271685392,22.008726564830333,0.0,0.0,0.0,0.0,0.0,0.0,0.0,0.0,0.0,0.0,0.0,0.0,0.0,60.000000000948,0.31067285166235026
0.88125,9.977743875496747,9.986184249000226,0.0,0.0,0.0,17.822602970033497,22.21346890535798,0.0,0.0,0.0,0.0,0.0,0.0,0.0,0.0,0.0,0.0,0.0,0.0,0.0,59.99999999988846,0.30608271154285194
0.8999999999999999,9.796560931228726,9.840806342243257,0.0,0.0,0.0,17.950154736806752,22.412477989920234,0.0,0.0,0.0,0.0,0.0,0.0,0.0,0.0,0.0,0.0,0.0,0.0,0.0,60.000000000198966,0.3016267889620463
0.91875,9.62120857361321,9.699624224905575,0.0,0.0,0.0,18.073182585740508,22.605984615963592,0.0,0.0,0.0,0.0,0.0,0.0,0.0,0.0,0.0,0.0,0.0,0.0,0.0,60.00000000022288,0.2972994699162406
0.9375,9.451433834101762,9.562464100890082,0.0,0.0,0.0,18.191893814585207,22.794208250557627,0.0,0.0,0.0,0.0,0.0,0.0,0.0,0.0,0.0,0.0,0.0,0.0,0.0,60.000000000134676,0.2930954274482108
0.9562499999999999,9.286996701813127,9.4291610233014,0.0,0.0,0.0,18.30648465686038,22.977357618783454,0.0,0.0,0.0,0.0,0.0,0.0,0.0,0.0,0.0,0.0,0.0,0.0,0.0,60.00000000075836,0.2890096058356876
0.975,9.12766942754982,9.299558403109149,0.0,0.0,0.0,18.417140902981732,23.155631267001585,0.0,0.0,0.0,0.0,0.0,0.0,0.0,0.0,0.0,0.0,0.0,0.0,0.0,60.00000000064229,0.28503720552489237
0.9937499999999999,8.973235860004605,9.173507543742991,0.0,0.0,0.0,18.524038492635825,23.32921810356863,0.0,0.0,0.0,0.0,0.0,0.0,0.0,0.0,0.0,0.0,0.0,0.0,0.0,59.999999999952045,0.28117366887459366
1.0125,8.823490812263787,9.050867199210382,0.0,0.0,0.0,18.627344075960266,23.498297912803682,0.0,0.0,0.0,0.0,0.0,0.0,0.0,0.0,0.0,0.0,0.0,0.0,0.0,60.00000000023812,0.2774146666113815
1.03125,8.678239458713946,8.931503155323608,0.0,0.0,0.0,18.72721554406428,23.66304184236345,0.0,0.0,0.0,0.0,0.0,0.0,0.0,0.0,0.0,0.0,0.0,0.0,0.0,60.00000000046529,0.27375608498522797
1.05,8.537296763903763,8.815287835155754,0.0,0.0,0.0,18.823802532227308,23.823612868369295,0.0,0.0,0.0,0.0,0.0,0.0,0.0,0.0,0.0,0.0,0.0,0.0,0.0,59.999999999656126,0.27019401368249024
1.0687499999999999,8.400486941432549,8.702099926748918,0.0,0.0,0.0,18.91724689523899,23.980166236655407,0.0,0.0,0.0,0.0,0.0,0.0,0.0,0.0,0.0,0.0,0.0,0.0,0.0,60.000000000075865,0.2667247344216357
1.0875,8.267642940049384,8.59182403031489,0.0,0.0,0.0,19.00768315305537,24.132849876454408,0.0,0.0,0.0,0.0,0.0,0.0,0.0,0.0,0.0,0.0,0.0,0.0,0.0,59.999999999874056,0.2633447101239696
1.10625,8.13860596048614,8.484350328251397,0.0,0.0,0.0,19.09523891428307,24.281804797133482,0.0,0.0,0.0,0.0,0.0,0.0,0.0,0.0,0.0,0.0,0.0,0.0,0.0,60.00000000015409,0.260050574814511
1.125,8.013224997136435,8.379574272477598,0.0,0.0,0.0,19.180035271912715,24.427165458522126,0.0,0.0,0.0,0.0,0.0,0.0,0.0,0.0,0.0,0.0,0.0,0.0,0.0,60.00000000004887,0.25683912402824893
1.14375,7.8913564070134745,8.277396291511126,0.0,0.0,0.0,19.262187177670643,24.569060123704148,0.0,0.0,0.0,0.0,0.0,0.0,0.0,0.0,0.0,0.0,0.0,0.0,0.0,59.99999999989939,0.2537073058384979
1.1624999999999999,7.772863502560232,8.177721514190926,0.0,0.0,0.0,19.341803792927145,24.707611190221712,0.0,0.0,0.0,0.0,0.0,0.0,0.0,0.0,0.0,0.0,0.0,0.0,0.0,59.99999999990001,0.25065221238599716
1.18125,7.657616168117205,8.080459510049744,0.0,0.0,0.0,19.418988818832897,24.84293550293441,0.0,0.0,0.0,0.0,0.0,0.0,0.0,0.0,0.0,0.0,0.0,0.0,0.0,59.99999999993425,0.2476710719208651
1.2,7.545490498676657,7.985524045244465,0.0,0.0,0.0,19.493840806614415,24.975144649135387,0.0,0.0,0.0,0.0,0.0,0.0,0.0,0.0,0.0,0.0,0.0,0.0,0.0,59.999999999670926,0.24476124132193663
1.21875,7.436368459949282,7.892832853349754,0.0,0.0,0.0,19.56645344953695,25.10434523745399,0.0,0.0,0.0,0.0,0.0,0.0,0.0,0.0,0.0,0.0,0.0,0.0,0.0,60.00000000028998,0.24192019907476967
1.2375,7.330137567373279,7.802307418956237,0.0,0.0,0.0,19.63691585550679,25.230639158170145,0.0,0.0,0.0,0.0,0.0,0.0,0.0,0.0,0.0,0.0,0.0,0.0,0.0,60.00000000000645,0.23914553863016835
1.2562499999999999,7.226690585549572,7.713872775797006,0.0,0.0,0.0,19.70531280587001,25.35412383283203,0.0,0.0,0.0,0.0,0.0,0.0,0.0,0.0,0.0,0.0,0.0,0.0,0.0,60.000000000048615,0.23643496222813068
1.275,7.125925243720913,7.627457315371328,0.0,0.0,0.0,19.771724995652637,25.474892445089974,0.0,0.0,0.0,0.0,0.0,0.0,0.0,0.0,0.0,0.0,0.0,0.0,0.0,59.999999999834856,0.23378627502281088
1.29375,7.027743969168079,7.542992608174241,0.0,0.0,0.0,19.8362292612963,25.59303416149644,0.0,0.0,0.0,0.0,0.0,0.0,0.0,0.0,0.0,0.0,0.0,0.0,0.0,60.00000000013506,0.23119737960906386
1.3125,6.932053635394284,7.460413234707952,0.0,0.0,0.0,19.898898792936073,25.708634337046096,0.0,0.0,0.0,0.0,0.0,0.0,0.0,0.0,0.0,0.0,0.0,0.0,0.0,60.0000000000844,0.22866627083730598
1.33125,6.838765325963313,7.379656627399337,0.0,0.0,0.0,19.959803335419487,25.821774711419387,0.0,0.0,0.0,0.0,0.0,0.0,0.0,0.0,0.0,0.0,0.0,0.0,0.0,60.000000000201524,0.22619103097374707
1.3499999999999999,6.747794111428126,7.300662921125169,0.0,0.0,0.0,20.019009375707444,25.932533591684788,0.0,0.0,0.0,0.0,0.0,0.0,0.0,0.0,0.0,0.0,0.0,0.0,0.0,59.99999999994553,0.22376982511444013
1.36875,6.659058839955871,7.223374813203197,0.0,0.0,0.0,20.076580320205018,26.04098602649009,0.0,0.0,0.0,0.0,0.0,0.0,0.0,0.0,0.0,0.0,0.0,0.0,0.0,59.999999999854175,0.22140089689776427
1.3875,6.572481939697318,7.147737431131453,0.0,0.0,0.0,20.132576660468676,26.14720396881701,0.0,0.0,0.0,0.0,0.0,0.0,0.0,0.0,0.0,0.0,0.0,0.0,0.0,60.000000000114454,0.2190825644479767
1.40625,6.487989232763682,7.073698208168764,0.0,0.0,0.0,20.187056129144846,26.25125642974455,0.0,0.0,0.0,0.0,0.0,0.0,0.0,0.0,0.0,0.0,0.0,0.0,0.0,59.999999999821846,0.21681321656044272
1.425,6.405509760493733,7.0012067666722,0.0,0.0,0.0,20.2400738476592,26.353209625191067,0.0,0.0,0.0,0.0,0.0,0.0,0.0,0.0,0.0,0.0,0.0,0.0,0.0,60.0000000000162,0.21459130913110241
1.4437499999999999,6.324975617922968,6.930214807276454,0.0,0.0,0.0,20.29168246319529,26.453127111342305,0.0,0.0,0.0,0.0,0.0,0.0,0.0,0.0,0.0,0.0,0.0,0.0,0.0,59.99999999973702,0.21241536175295667
1.4625,6.246321798807985,6.8606760055130485,0.0,0.0,0.0,20.34193227977138,26.55106991598145,0.0,0.0,0.0,0.0,0.0,0.0,0.0,0.0,0.0,0.0,0.0,0.0,0.0,60.00000000007386,0.21028395455428622
1.48125,6.169486048484144,6.7925459132734085,0.0,0.0,0.0,20.390871379266283,26.64709665880396,0.0,0.0,0.0,0.0,0.0,0.0,0.0,0.0,0.0,0.0,0.0,0.0,0.0,59.99999999982779,0.20819572517112273
1.5,6.094408726215249,6.725781867021081,0.0,0.0,0.0,20.438545737799213,26.741263668948104,0.0,0.0,0.0,0.0,0.0,0.0,0.0,0.0,0.0,0.0,0.0,0.0,0.0,59.99999999998364,0.2061493659413714
1.51875,6.021032674376215,6.660342900184011,0.0,0.0,0.0,20.484999333075976,26.833625092472513,0.0,0.0,0.0,0.0,0.0,0.0,0.0,0.0,0.0,0.0,0.0,0.0,0.0,60.00000000010871,0.2041436212135932
1.5374999999999999,5.949303095655128,6.5961896611311115,0.0,0.0,0.0,20.530274246925067,26.92423299619515,0.0,0.0,0.0,0.0,0.0,0.0,0.0,0.0,0.0,0.0,0.0,0.0,0.0,59.99999999990646,0.20217728483553207
1.55625,5.8791674370712865,6.53328433565131,0.0,0.0,0.0,20.574410761737052,27.013137465586304,0.0,0.0,0.0,0.0,0.0,0.0,0.0,0.0,0.0,0.0,0.0,0.0,0.0,60.00000000004595,0.20024919777935055
1.575,5.81057528013031,6.471590573375984,0.0,0.0,0.0,20.617447450502027,27.10038669596796,0.0,0.0,0.0,0.0,0.0,0.0,0.0,0.0,0.0,0.0,0.0,0.0,0.0,59.99999999997628,0.19835824588293263
1.59375,5.743478237565996,6.411073418770622,0.0,0.0,0.0,20.65942126287036,27.18602708065779,0.0,0.0,0.0,0.0,0.0,0.0,0.0,0.0,0.0,0.0,0.0,0.0,0.0,59.99999999986477,0.19650335773783717
1.6125,5.677829855499292,6.351699245606135,0.0,0.0,0.0,20.70036760561297,27.27010329324503,0.0,0.0,0.0,0.0,0.0,0.0,0.0,0.0,0.0,0.0,0.0,0.0,0.0,59.99999999996343,0.1946835026797752
1.6312499999999999,5.6135855209849455,6.29343569501039,0.0,0.0,0.0,20.740320418540595,27.35265836548319,0.0,0.0,0.0,0.0,0.0,0.0,0.0,0.0,0.0,0.0,0.0,0.0,0.0,60.00000000001913,0.1928976888889464
1.65,5.550702374759855,6.236251617033128,0.0,0.0,0.0,20.779312246545263,27.4337337616744,0.0,0.0,0.0,0.0,0.0,0.0,0.0,0.0,0.0,0.0,0.0,0.0,0.0,60.00000000001265,0.19114496160011968
1.66875,5.489139228634467,6.180117015250256,0.0,0.0,0.0,20.81737430737399,27.51336944874066,0.0,0.0,0.0,0.0,0.0,0.0,0.0,0.0,0.0,0.0,0.0,0.0,0.0,59.999999999999375,0.18942440140446587
1.6875,5.428856487352108,6.12500299433421,0.0,0.0,0.0,20.85453655565747,27.59160396265372,0.0,0.0,0.0,0.0,0.0,0.0,0.0,0.0,0.0,0.0,0.0,0.0,0.0,59.99999999999751,0.18773512264238573
1.70625,5.369816074648291,6.070881710411613,0.0,0.0,0.0,20.89082774342278,27.668474471435257,0.0,0.0,0.0,0.0,0.0,0.0,0.0,0.0,0.0,0.0,0.0,0.0,0.0,59.99999999991795,0.18607627188184123
1.7249999999999999,5.311981363299782,6.017726324085817,0.0,0.0,0.0,20.926275477420166,27.744016835116497,0.0,0.0,0.0,0.0,0.0,0.0,0.0,0.0,0.0,0.0,0.0,0.0,0.0,59.99999999992227,0.18444702647899605
1.74375,5.2553171087720765,5.965510955797253,0.0,0.0,0.0,20.96090627301899,27.818265662121586,0.0,0.0,0.0,0.0,0.0,0.0,0.0,0.0,0.0,0.0,0.0,0.0,0.0,59.9999999997099,0.18284659320893681
1.7625,5.199789386592524,5.914210643754582,0.0,0.0,0.0,20.99474560585166,27.891254363858863,0.0,0.0,0.0,0.0,0.0,0.0,0.0,0.0,0.0,0.0,0.0,0.0,0.0,60.000000000057625,0.18127420697847146
1.78125,5.145365532568543,5.863801303560716,0.0,0.0,0.0,21.027817959422116,27.963015204504668,0.0,0.0,0.0,0.0,0.0,0.0,0.0,0.0,0.0,0.0,0.0,0.0,0.0,60.00000000005605,0.17972912958464984
1.7999999999999998,5.092014086670223,5.814259690515778,0.0,0.0,0.0,21.060146871791343,28.033579350923162,0.0,0.0,0.0,0.0,0.0,0.0,0.0,0.0,0.0,0.0,0.0,0.0,0.0,59.99999999990051,0.17821064856336016
1.8187499999999999,5.039704739453493,5.765563363443205,0.0,0.0,0.0,21.091754978748057,28.102976918409546,0.0,0.0,0.0,0.0,0.0,0.0,0.0,0.0,0.0,0.0,0.0,0.0,0.0,60.0000000000543,0.1767180760793406
1.8375,4.988408281189262,5.717690650290303,0.0,0.0,0.0,21.12266405454172,28.171237013902083,0.0,0.0,0.0,0.0,0.0,0.0,0.0,0.0,0.0,0.0,0.0,0.0,0.0,59.99999999992336,0.17525074786996464
1.85625,4.938096553914671,5.670620615816736,0.0,0.0,0.0,21.152895051487818,28.238387778715193,0.0,0.0,0.0,0.0,0.0,0.0,0.0,0.0,0.0,0.0,0.0,0.0,0.0,59.99999999993442,0.17380802225778905
1.875,4.88874240556321,5.6243330305007815,0.0,0.0,0.0,21.18246813643409,28.304456427422416,0.0,0.0,0.0,0.0,0.0,0.0,0.0,0.0,0.0,0.0,0.0,0.0,0.0,59.9999999999205,0.17238927919525326
